# TBinMid=3.71519 ssec TBinWidth=7.77057 ss EBinWidth=0.2MeV Fluence at Earth for this timebin in neutrinos per cm^2
# E(GeV)	NuE	NuMu	NuTau	aNuE	aNuMu	aNuTau
   1.38589050E-13   4.83862735E+01   5.72549463E+01   5.72549463E+01   5.37990819E-07   9.43520450E-06   9.43520450E-06
   2.00000000E-04   2.41051907E+06   2.36279584E+06   2.36279584E+06   2.65109898E+06   2.23823704E+06   2.23823704E+06
   4.00000000E-04   1.16605918E+07   1.14884670E+07   1.14884670E+07   1.25105674E+07   1.06516049E+07   1.06516049E+07
   6.00000000E-04   2.93293529E+07   2.91101085E+07   2.91101085E+07   3.03188520E+07   2.60076340E+07   2.60076340E+07
   8.00000000E-04   5.58851942E+07   5.58179169E+07   5.58179169E+07   5.58872829E+07   4.82738814E+07   4.82738814E+07
   1.00000000E-03   9.12554967E+07   9.16310083E+07   9.16310083E+07   8.86521175E+07   7.70820508E+07   7.70820508E+07
   1.20000000E-03   1.35038881E+08   1.36212314E+08   1.36212314E+08   1.27870874E+08   1.11893392E+08   1.11893392E+08
   1.40000000E-03   1.86625822E+08   1.88992872E+08   1.88992872E+08   1.72722139E+08   1.52083233E+08   1.52083233E+08
   1.60000000E-03   2.45276313E+08   2.49253135E+08   2.49253135E+08   2.22363000E+08   1.96990115E+08   1.96990115E+08
   1.80000000E-03   3.10172821E+08   3.16179197E+08   3.16179197E+08   2.75963880E+08   2.45946158E+08   2.45946158E+08
   2.00000000E-03   3.80457385E+08   3.88902752E+08   3.88902752E+08   3.32729957E+08   2.98296347E+08   2.98296347E+08
   2.20000000E-03   4.55257967E+08   4.66529900E+08   4.66529900E+08   3.91914091E+08   3.53410824E+08   3.53410824E+08
   2.40000000E-03   5.33707348E+08   5.48162167E+08   5.48162167E+08   4.52824144E+08   4.10692589E+08   4.10692589E+08
   2.60000000E-03   6.14956815E+08   6.32912060E+08   6.32912060E+08   5.14826538E+08   4.69582085E+08   4.69582085E+08
   2.80000000E-03   6.98186235E+08   7.19914816E+08   7.19914816E+08   5.77347241E+08   5.29559642E+08   5.29559642E+08
   3.00000000E-03   7.82611615E+08   8.08337502E+08   8.08337502E+08   6.39871008E+08   5.90146435E+08   5.90146435E+08
   3.20000000E-03   8.67490905E+08   8.97386255E+08   8.97386255E+08   7.01939454E+08   6.50904417E+08   6.50904417E+08
   3.40000000E-03   9.52128526E+08   9.86312146E+08   9.86312146E+08   7.63148360E+08   7.11435519E+08   7.11435519E+08
   3.60000000E-03   1.03587891E+09   1.07441597E+09   1.07441597E+09   8.23144512E+08   7.71380385E+08   7.71380385E+08
   3.80000000E-03   1.11814922E+09   1.16105211E+09   1.16105211E+09   8.81622276E+08   8.30416765E+08   8.30416765E+08
   4.00000000E-03   1.19840133E+09   1.24563150E+09   1.24563150E+09   9.38320061E+08   8.88257716E+08   8.88257716E+08
   4.20000000E-03   1.27615303E+09   1.32762382E+09   1.32762382E+09   9.93016782E+08   9.44649675E+08   9.44649675E+08
   4.40000000E-03   1.35097861E+09   1.40655872E+09   1.40655872E+09   1.04552839E+09   9.99370478E+08   9.99370478E+08
   4.60000000E-03   1.42250868E+09   1.48202629E+09   1.48202629E+09   1.09570452E+09   1.05222737E+09   1.05222737E+09
   4.80000000E-03   1.49042934E+09   1.55367667E+09   1.55367667E+09   1.14342531E+09   1.10305503E+09   1.10305503E+09
   5.00000000E-03   1.55448071E+09   1.62121884E+09   1.62121884E+09   1.18859839E+09   1.15171364E+09   1.15171364E+09
   5.20000000E-03   1.61445489E+09   1.68441880E+09   1.68441880E+09   1.23115606E+09   1.19808701E+09   1.19808701E+09
   5.40000000E-03   1.67019341E+09   1.74309697E+09   1.74309697E+09   1.27105267E+09   1.24208077E+09   1.24208077E+09
   5.60000000E-03   1.72158429E+09   1.79712520E+09   1.79712520E+09   1.30826215E+09   1.28362067E+09   1.28362067E+09
   5.80000000E-03   1.76855872E+09   1.84642322E+09   1.84642322E+09   1.34277583E+09   1.32265089E+09   1.32265089E+09
   6.00000000E-03   1.81108749E+09   1.89095489E+09   1.89095489E+09   1.37460033E+09   1.35913250E+09   1.35913250E+09
   6.20000000E-03   1.84917736E+09   1.93072412E+09   1.93072412E+09   1.40375568E+09   1.39304197E+09   1.39304197E+09
   6.40000000E-03   1.88286723E+09   1.96577080E+09   1.96577080E+09   1.43027362E+09   1.42436975E+09   1.42436975E+09
   6.60000000E-03   1.91222446E+09   1.99616658E+09   1.99616658E+09   1.45419601E+09   1.45311899E+09   1.45311899E+09
   6.80000000E-03   1.93734107E+09   2.02201080E+09   2.02201080E+09   1.47557343E+09   1.47930424E+09   1.47930424E+09
   7.00000000E-03   1.95833032E+09   2.04342651E+09   2.04342651E+09   1.49446386E+09   1.50295031E+09   1.50295031E+09
   7.20000000E-03   1.97532319E+09   2.06055671E+09   2.06055671E+09   1.51093156E+09   1.52409119E+09   1.52409119E+09
   7.40000000E-03   1.98846531E+09   2.07356071E+09   2.07356071E+09   1.52504597E+09   1.54276899E+09   1.54276899E+09
   7.60000000E-03   1.99791392E+09   2.08261087E+09   2.08261087E+09   1.53688082E+09   1.55903299E+09   1.55903299E+09
   7.80000000E-03   2.00383526E+09   2.08788955E+09   2.08788955E+09   1.54651325E+09   1.57293876E+09   1.57293876E+09
   8.00000000E-03   2.00640202E+09   2.08958631E+09   2.08958631E+09   1.55402306E+09   1.58454733E+09   1.58454733E+09
   8.20000000E-03   2.00579123E+09   2.08789551E+09   2.08789551E+09   1.55949204E+09   1.59392440E+09   1.59392440E+09
   8.40000000E-03   2.00218227E+09   2.08301403E+09   2.08301403E+09   1.56300337E+09   1.60113964E+09   1.60113964E+09
   8.60000000E-03   1.99575520E+09   2.07513942E+09   2.07513942E+09   1.56464107E+09   1.60626603E+09   1.60626603E+09
   8.80000000E-03   1.98668924E+09   2.06446823E+09   2.06446823E+09   1.56448956E+09   1.60937924E+09   1.60937924E+09
   9.00000000E-03   1.97516156E+09   2.05119456E+09   2.05119456E+09   1.56263319E+09   1.61055705E+09   1.61055705E+09
   9.20000000E-03   1.96134619E+09   2.03550892E+09   2.03550892E+09   1.55915592E+09   1.60987890E+09   1.60987890E+09
   9.40000000E-03   1.94541314E+09   2.01759721E+09   2.01759721E+09   1.55414099E+09   1.60742532E+09   1.60742532E+09
   9.60000000E-03   1.92752772E+09   1.99763995E+09   1.99763995E+09   1.54767063E+09   1.60327759E+09   1.60327759E+09
   9.80000000E-03   1.90784992E+09   1.97581160E+09   1.97581160E+09   1.53982580E+09   1.59751729E+09   1.59751729E+09
   1.00000000E-02   1.88653400E+09   1.95228016E+09   1.95228016E+09   1.53068604E+09   1.59022596E+09   1.59022596E+09
   1.02000000E-02   1.86372814E+09   1.92720673E+09   1.92720673E+09   1.52032922E+09   1.58148480E+09   1.58148480E+09
   1.04000000E-02   1.83957427E+09   1.90074532E+09   1.90074532E+09   1.50883145E+09   1.57137432E+09   1.57137432E+09
   1.06000000E-02   1.81420785E+09   1.87304269E+09   1.87304269E+09   1.49626693E+09   1.55997416E+09   1.55997416E+09
   1.08000000E-02   1.78775786E+09   1.84423827E+09   1.84423827E+09   1.48270782E+09   1.54736280E+09   1.54736280E+09
   1.10000000E-02   1.76034677E+09   1.81446420E+09   1.81446420E+09   1.46822421E+09   1.53361738E+09   1.53361738E+09
   1.12000000E-02   1.73209059E+09   1.78384537E+09   1.78384537E+09   1.45288402E+09   1.51881350E+09   1.51881350E+09
   1.14000000E-02   1.70309895E+09   1.75249954E+09   1.75249954E+09   1.43675296E+09   1.50302510E+09   1.50302510E+09
   1.16000000E-02   1.67347524E+09   1.72053749E+09   1.72053749E+09   1.41989447E+09   1.48632430E+09   1.48632430E+09
   1.18000000E-02   1.64331674E+09   1.68806319E+09   1.68806319E+09   1.40236976E+09   1.46878128E+09   1.46878128E+09
   1.20000000E-02   1.61271478E+09   1.65517401E+09   1.65517401E+09   1.38423772E+09   1.45046420E+09   1.45046420E+09
   1.22000000E-02   1.58175498E+09   1.62196095E+09   1.62196095E+09   1.36555499E+09   1.43143910E+09   1.43143910E+09
   1.24000000E-02   1.55051740E+09   1.58850887E+09   1.58850887E+09   1.34637591E+09   1.41176986E+09   1.41176986E+09
   1.26000000E-02   1.51907674E+09   1.55489671E+09   1.55489671E+09   1.32675258E+09   1.39151813E+09   1.39151813E+09
   1.28000000E-02   1.48750262E+09   1.52119777E+09   1.52119777E+09   1.30673485E+09   1.37074332E+09   1.37074332E+09
   1.30000000E-02   1.45585972E+09   1.48747996E+09   1.48747996E+09   1.28637037E+09   1.34950255E+09   1.34950255E+09
   1.32000000E-02   1.42420804E+09   1.45380602E+09   1.45380602E+09   1.26570461E+09   1.32785062E+09   1.32785062E+09
   1.34000000E-02   1.39260311E+09   1.42023379E+09   1.42023379E+09   1.24478090E+09   1.30584007E+09   1.30584007E+09
   1.36000000E-02   1.36109619E+09   1.38681645E+09   1.38681645E+09   1.22364048E+09   1.28352112E+09   1.28352112E+09
   1.38000000E-02   1.32973450E+09   1.35360277E+09   1.35360277E+09   1.20232256E+09   1.26094172E+09   1.26094172E+09
   1.40000000E-02   1.29856142E+09   1.32063732E+09   1.32063732E+09   1.18086430E+09   1.23814758E+09   1.23814758E+09
   1.42000000E-02   1.26761665E+09   1.28796073E+09   1.28796073E+09   1.15930095E+09   1.21518215E+09   1.21518215E+09
   1.44000000E-02   1.23693648E+09   1.25560987E+09   1.25560987E+09   1.13766585E+09   1.19208670E+09   1.19208670E+09
   1.46000000E-02   1.20655392E+09   1.22361809E+09   1.22361809E+09   1.11599049E+09   1.16890034E+09   1.16890034E+09
   1.48000000E-02   1.17649888E+09   1.19201543E+09   1.19201543E+09   1.09430456E+09   1.14566006E+09   1.14566006E+09
   1.50000000E-02   1.14679839E+09   1.16082879E+09   1.16082879E+09   1.07263603E+09   1.12240080E+09   1.12240080E+09
   1.52000000E-02   1.11747674E+09   1.13008216E+09   1.13008216E+09   1.05101120E+09   1.09915547E+09   1.09915547E+09
   1.54000000E-02   1.08855563E+09   1.09979675E+09   1.09979675E+09   1.02945470E+09   1.07595500E+09   1.07595500E+09
   1.56000000E-02   1.06005434E+09   1.06999119E+09   1.06999119E+09   1.00798965E+09   1.05282842E+09   1.05282842E+09
   1.58000000E-02   1.03198989E+09   1.04068173E+09   1.04068173E+09   9.86637629E+08   1.02980293E+09   1.02980293E+09
   1.60000000E-02   1.00437718E+09   1.01188233E+09   1.01188233E+09   9.65418757E+08   1.00690390E+09   1.00690390E+09
   1.62000000E-02   9.77229080E+08   9.83604857E+08   9.83604857E+08   9.44351768E+08   9.84154996E+08   9.84154996E+08
   1.64000000E-02   9.50556637E+08   9.55859218E+08   9.55859218E+08   9.23454047E+08   9.61578182E+08   9.61578182E+08
   1.66000000E-02   9.24369138E+08   9.28653496E+08   9.28653496E+08   9.02741687E+08   9.39193827E+08   9.39193827E+08
   1.68000000E-02   8.98674254E+08   9.01994077E+08   9.01994077E+08   8.82229547E+08   9.17020741E+08   9.17020741E+08
   1.70000000E-02   8.73478144E+08   8.75885779E+08   8.75885779E+08   8.61931299E+08   8.95076243E+08   8.95076243E+08
   1.72000000E-02   8.48785569E+08   8.50331963E+08   8.50331963E+08   8.41859483E+08   8.73376223E+08   8.73376223E+08
   1.74000000E-02   8.24599986E+08   8.25334648E+08   8.25334648E+08   8.22025556E+08   8.51935199E+08   8.51935199E+08
   1.76000000E-02   8.00923646E+08   8.00894614E+08   8.00894614E+08   8.02439939E+08   8.30766378E+08   8.30766378E+08
   1.78000000E-02   7.77757690E+08   7.77011500E+08   7.77011500E+08   7.83112071E+08   8.09881716E+08   8.09881716E+08
   1.80000000E-02   7.55102229E+08   7.53683900E+08   7.53683900E+08   7.64050449E+08   7.89291976E+08   7.89291976E+08
   1.82000000E-02   7.32956427E+08   7.30909451E+08   7.30909451E+08   7.45262678E+08   7.69006782E+08   7.69006782E+08
   1.84000000E-02   7.11318580E+08   7.08684913E+08   7.08684913E+08   7.26755512E+08   7.49034677E+08   7.49034677E+08
   1.86000000E-02   6.90186189E+08   6.87006252E+08   6.87006252E+08   7.08534901E+08   7.29383179E+08   7.29383179E+08
   1.88000000E-02   6.69556026E+08   6.65868712E+08   6.65868712E+08   6.90606028E+08   7.10058829E+08   7.10058829E+08
   1.90000000E-02   6.49424201E+08   6.45266880E+08   6.45266880E+08   6.72973353E+08   6.91067248E+08   6.91067248E+08
   1.92000000E-02   6.29786223E+08   6.25194760E+08   6.25194760E+08   6.55640651E+08   6.72413185E+08   6.72413185E+08
   1.94000000E-02   6.10637055E+08   6.05645826E+08   6.05645826E+08   6.38611048E+08   6.54100565E+08   6.54100565E+08
   1.96000000E-02   5.91971170E+08   5.86613082E+08   5.86613082E+08   6.21887059E+08   6.36132537E+08   6.36132537E+08
   1.98000000E-02   5.73782601E+08   5.68089117E+08   5.68089117E+08   6.05470624E+08   6.18511520E+08   6.18511520E+08
   2.00000000E-02   5.56064988E+08   5.50066151E+08   5.50066151E+08   5.89363139E+08   6.01239248E+08   6.01239248E+08
   2.02000000E-02   5.38811623E+08   5.32536086E+08   5.32536086E+08   5.73565493E+08   5.84316810E+08   5.84316810E+08
   2.04000000E-02   5.22015491E+08   5.15490546E+08   5.15490546E+08   5.58078094E+08   5.67744692E+08   5.67744692E+08
   2.06000000E-02   5.05669306E+08   4.98920919E+08   4.98920919E+08   5.42900902E+08   5.51522819E+08   5.51522819E+08
   2.08000000E-02   4.89765554E+08   4.82818394E+08   4.82818394E+08   5.28033459E+08   5.35650589E+08   5.35650589E+08
   2.10000000E-02   4.74296518E+08   4.67173995E+08   4.67173995E+08   5.13474914E+08   5.20126910E+08   5.20126910E+08
   2.12000000E-02   4.59254317E+08   4.51978616E+08   4.51978616E+08   4.99224051E+08   5.04950238E+08   5.04950238E+08
   2.14000000E-02   4.44630928E+08   4.37223045E+08   4.37223045E+08   4.85279316E+08   4.90118607E+08   4.90118607E+08
   2.16000000E-02   4.30418220E+08   4.22897999E+08   4.22897999E+08   4.71638835E+08   4.75629662E+08   4.75629662E+08
   2.18000000E-02   4.16607973E+08   4.08994143E+08   4.08994143E+08   4.58300448E+08   4.61480690E+08   4.61480690E+08
   2.20000000E-02   4.03191904E+08   3.95502117E+08   3.95502117E+08   4.45261720E+08   4.47668648E+08   4.47668648E+08
   2.22000000E-02   3.90161687E+08   3.82412554E+08   3.82412554E+08   4.32519969E+08   4.34190189E+08   4.34190189E+08
   2.24000000E-02   3.77508974E+08   3.69716105E+08   3.69716105E+08   4.20072284E+08   4.21041694E+08   4.21041694E+08
   2.26000000E-02   3.65225412E+08   3.57403448E+08   3.57403448E+08   4.07915545E+08   4.08219289E+08   4.08219289E+08
   2.28000000E-02   3.53302659E+08   3.45465315E+08   3.45465315E+08   3.96046440E+08   3.95718876E+08   3.95718876E+08
   2.30000000E-02   3.41732400E+08   3.33892498E+08   3.33892498E+08   3.84461484E+08   3.83536151E+08   3.83536151E+08
   2.32000000E-02   3.30506360E+08   3.22675864E+08   3.22675864E+08   3.73157033E+08   3.71666626E+08   3.71666626E+08
   2.34000000E-02   3.19616317E+08   3.11806372E+08   3.11806372E+08   3.62129304E+08   3.60105650E+08   3.60105650E+08
   2.36000000E-02   3.09054113E+08   3.01275078E+08   3.01275078E+08   3.51374384E+08   3.48848428E+08   3.48848428E+08
   2.38000000E-02   2.98811665E+08   2.91073146E+08   2.91073146E+08   3.40888249E+08   3.37890039E+08   3.37890039E+08
   2.40000000E-02   2.88880975E+08   2.81191859E+08   2.81191859E+08   3.30666776E+08   3.27225450E+08   3.27225450E+08
   2.42000000E-02   2.79254133E+08   2.71622624E+08   2.71622624E+08   3.20705753E+08   3.16849537E+08   3.16849537E+08
   2.44000000E-02   2.69923332E+08   2.62356978E+08   2.62356978E+08   3.11000895E+08   3.06757095E+08   3.06757095E+08
   2.46000000E-02   2.60880870E+08   2.53386598E+08   2.53386598E+08   3.01547851E+08   2.96942857E+08   2.96942857E+08
   2.48000000E-02   2.52119156E+08   2.44703299E+08   2.44703299E+08   2.92342218E+08   2.87401501E+08   2.87401501E+08
   2.50000000E-02   2.43630717E+08   2.36299047E+08   2.36299047E+08   2.83379549E+08   2.78127668E+08   2.78127668E+08
   2.52000000E-02   2.35408199E+08   2.28165954E+08   2.28165954E+08   2.74655363E+08   2.69115970E+08   2.69115970E+08
   2.54000000E-02   2.27444376E+08   2.20296285E+08   2.20296285E+08   2.66165153E+08   2.60361002E+08   2.60361002E+08
   2.56000000E-02   2.19732148E+08   2.12682463E+08   2.12682463E+08   2.57904396E+08   2.51857352E+08   2.51857352E+08
   2.58000000E-02   2.12264547E+08   2.05317063E+08   2.05317063E+08   2.49868558E+08   2.43599609E+08   2.43599609E+08
   2.60000000E-02   2.05034737E+08   1.98192823E+08   1.98192823E+08   2.42053103E+08   2.35582374E+08   2.35582374E+08
   2.62000000E-02   1.98036018E+08   1.91302636E+08   1.91302636E+08   2.34453499E+08   2.27800266E+08   2.27800266E+08
   2.64000000E-02   1.91261825E+08   1.84639556E+08   1.84639556E+08   2.27065224E+08   2.20247929E+08   2.20247929E+08
   2.66000000E-02   1.84705731E+08   1.78196796E+08   1.78196796E+08   2.19883773E+08   2.12920041E+08   2.12920041E+08
   2.68000000E-02   1.78361446E+08   1.71967728E+08   1.71967728E+08   2.12904663E+08   2.05811318E+08   2.05811318E+08
   2.70000000E-02   1.72222817E+08   1.65945883E+08   1.65945883E+08   2.06123437E+08   1.98916522E+08   1.98916522E+08
   2.72000000E-02   1.66283831E+08   1.60124948E+08   1.60124948E+08   1.99535668E+08   1.92230462E+08   1.92230462E+08
   2.74000000E-02   1.60538611E+08   1.54498768E+08   1.54498768E+08   1.93136965E+08   1.85748003E+08   1.85748003E+08
   2.76000000E-02   1.54981417E+08   1.49061343E+08   1.49061343E+08   1.86922977E+08   1.79464071E+08   1.79464071E+08
   2.78000000E-02   1.49606646E+08   1.43806825E+08   1.43806825E+08   1.80889395E+08   1.73373650E+08   1.73373650E+08
   2.80000000E-02   1.44408828E+08   1.38729519E+08   1.38729519E+08   1.75031956E+08   1.67471796E+08   1.67471796E+08
   2.82000000E-02   1.39382631E+08   1.33823879E+08   1.33823879E+08   1.69346446E+08   1.61753628E+08   1.61753628E+08
   2.84000000E-02   1.34522852E+08   1.29084508E+08   1.29084508E+08   1.63828703E+08   1.56214343E+08   1.56214343E+08
   2.86000000E-02   1.29824420E+08   1.24506153E+08   1.24506153E+08   1.58474619E+08   1.50849208E+08   1.50849208E+08
   2.88000000E-02   1.25282395E+08   1.20083705E+08   1.20083705E+08   1.53280142E+08   1.45653570E+08   1.45653570E+08
   2.90000000E-02   1.20891964E+08   1.15812196E+08   1.15812196E+08   1.48241278E+08   1.40622852E+08   1.40622852E+08
   2.92000000E-02   1.16648439E+08   1.11686796E+08   1.11686796E+08   1.43354093E+08   1.35752559E+08   1.35752559E+08
   2.94000000E-02   1.12547259E+08   1.07702811E+08   1.07702811E+08   1.38614714E+08   1.31038277E+08   1.31038277E+08
   2.96000000E-02   1.08583983E+08   1.03855681E+08   1.03855681E+08   1.34019332E+08   1.26475675E+08   1.26475675E+08
   2.98000000E-02   1.04754289E+08   1.00140974E+08   1.00140974E+08   1.29564201E+08   1.22060503E+08   1.22060503E+08
   3.00000000E-02   1.01053977E+08   9.65543902E+07   9.65543902E+07   1.25245638E+08   1.17788598E+08   1.17788598E+08
   3.02000000E-02   9.74789585E+07   9.30917513E+07   9.30917513E+07   1.21060030E+08   1.13655881E+08   1.13655881E+08
   3.04000000E-02   9.40252617E+07   8.97490031E+07   8.97490031E+07   1.17003825E+08   1.09658357E+08   1.09658357E+08
   3.06000000E-02   9.06890248E+07   8.65222113E+07   8.65222113E+07   1.13073541E+08   1.05792117E+08   1.05792117E+08
   3.08000000E-02   8.74664956E+07   8.34075582E+07   8.34075582E+07   1.09265762E+08   1.02053335E+08   1.02053335E+08
   3.10000000E-02   8.43540288E+07   8.04013407E+07   8.04013407E+07   1.05577139E+08   9.84382727E+07   9.84382727E+07
   3.12000000E-02   8.13480837E+07   7.74999673E+07   7.74999673E+07   1.02004392E+08   9.49432744E+07   9.49432744E+07
   3.14000000E-02   7.84452219E+07   7.46999554E+07   7.46999554E+07   9.85443063E+07   9.15647692E+07   9.15647692E+07
   3.16000000E-02   7.56421054E+07   7.19979286E+07   7.19979286E+07   9.51937355E+07   8.82992696E+07   8.82992696E+07
   3.18000000E-02   7.29354935E+07   6.93906142E+07   6.93906142E+07   9.19496003E+07   8.51433713E+07   8.51433713E+07
   3.20000000E-02   7.03222416E+07   6.68748403E+07   6.68748403E+07   8.88088879E+07   8.20937521E+07   8.20937521E+07
   3.22000000E-02   6.77992979E+07   6.44475335E+07   6.44475335E+07   8.57686523E+07   7.91471712E+07   7.91471712E+07
   3.24000000E-02   6.53637019E+07   6.21057158E+07   6.21057158E+07   8.28260134E+07   7.63004685E+07   7.63004685E+07
   3.26000000E-02   6.30125819E+07   5.98465028E+07   5.98465028E+07   7.99781567E+07   7.35505636E+07   7.35505636E+07
   3.28000000E-02   6.07431527E+07   5.76671007E+07   5.76671007E+07   7.72223326E+07   7.08944545E+07   7.08944545E+07
